BEGIN_SCAN_DATA
	FORMAT=CC-Export V1.9                  
	FILE_CREATION_DATE=02-Oct-2015 10:14:34
	LAST_MODIFIED=02-Oct-2015 10:14:34
	BEGIN_SCAN  1
		TASK_NAME=tba PDD Profiles
		PROGRAM=tbaScan
		MEAS_DATE=21-Jul-2015 16:04:45
		LINAC=M2619
		MODALITY=EL
		ISOCENTER=1000.00
		INPLANE_AXIS=Solid
		CROSSPLANE_AXIS=MLC
		DEPTH_AXIS=Depth
		INPLANE_AXIS_DIR=TARGET_GUN
		CROSSPLANE_AXIS_DIR=LEFT_RIGHT
		DEPTH_AXIS_DIR=UP_DOWN
		ENERGY=6.00
		NOMINAL_DMAX=13.00
		SSD=1000.00
		SCD=450.00
		WEDGE=App6x6
		FIELD_INPLANE=64.00
		FIELD_CROSSPLANE=64.00
		FIELD_TYPE=RECTANGULAR
		GANTRY=0.00
		GANTRY_UPRIGHT_POSITION=0
		GANTRY_ROTATION=CW
		COLL_ANGLE=0.00
		COLL_OFFSET_INPLANE=0.00
		COLL_OFFSET_CROSSPLANE=0.00
		SCAN_DEVICE=MP3
		SCAN_DEVICE_SETUP=BARA_TARGET_GUN
		ELECTROMETER=TANDEM
		RANGE_FIELD=AUTO
		RANGE_REFERENCE=AUTO
		DETECTOR=PLANE_PARALLEL_CHAMBER
		DETECTOR_RADIUS=0.00
		DETECTOR_NAME=PTW 34045 Adv. Markus
		DETECTOR_SN=0000
		DETECTOR_CALIBRATION=1500000000.00
		DETECTOR_IS_CALIBRATED=0
		DETECTOR_REFERENCE=THIMBLE_CHAMBER
		DETECTOR_REFERENCE_SUBCODE=SEMIFLEX
		DETECTOR_REFERENCE_RADIUS=2.75
		DETECTOR_REFERENCE_NAME=PTW 31002 Semiflex
		DETECTOR_REFERENCE_SN=0000
		DETECTOR_REFERENCE_IS_CALIBRATED=0
		DETECTOR_REFERENCE_CALIBRATION=250000000.00
		REF_FIELD_DEPTH=0.00
		REF_FIELD_DEFINED=WATER_SURFACE
		REF_FIELD_INPLANE=100.00
		REF_FIELD_CROSSPLANE=100.00
		REF_SCAN_POSITIONS=-120.00;-118.00;-116.00;-114.00;-112.00;-110.00;-108.00;-106.00;-104.00;-102.00;-100.00;-98.00;-96.00;-94.00;-92.00;-90.00;-88.00;-86.00;-84.00;-82.00;-80.00;-78.00;-76.00;-74.00;-72.00;-70.00;-68.00;-66.00;-64.00;-62.00;-60.00;-59.00;-58.00;-57.00;-56.00;-55.00;-54.00;-53.00;-52.00;-51.00;-50.00;-49.00;-48.00;-47.00;-46.00;-45.00;-44.00;-43.00;-42.00;-41.00;-40.00;-38.00;-36.00;-34.00;-32.00;-30.00;-28.00;-26.00;-24.00;-22.00;-20.00;-18.00;-16.00;-14.00;-12.00;-10.00;-8.00;-6.00;-4.00;-2.00;0.00;2.00;4.00;6.00;8.00;10.00;12.00;14.00;16.00;18.00;20.00;22.00;24.00;26.00;28.00;30.00;32.00;34.00;36.00;38.00;40.00;41.00;42.00;43.00;44.00;45.00;46.00;47.00;48.00;49.00;50.00;51.00;52.00;53.00;54.00;55.00;56.00;57.00;58.00;59.00;60.00;62.00;64.00;66.00;68.00;70.00;72.00;74.00;76.00;78.00;80.00;82.00;84.00;86.00;88.00;90.00;92.00;94.00;96.00;98.00;100.00;102.00;104.00;106.00;108.00;110.00;112.00;114.00;116.00;118.00;120.00;
		REF_OVERSCAN_FACTOR=1.00
		SCAN_CURVETYPE=INPLANE_PROFILE
		SCAN_DEPTH=10.00
		SCAN_OFFAXIS_INPLANE=0.00
		SCAN_OFFAXIS_CROSSPLANE=0.00
		SCAN_ANGLE=0.00
		SCAN_DIAGONAL=NOT_DIAGONAL
		SCAN_DIRECTION=POSITIVE
		MEAS_MEDIUM=WATER
		MEAS_PRESET=REFERENCE_DOSEMETER
		MEAS_TIME=0.800
		MEAS_UNIT=A.U.
		SCAN_SPEEDS=20.00; 5.00;40.00; 15.00;100.00; 25.00;400.00; 50.00;
		DELAY_TIMES=20.00; 0.000;150.00; 0.000;400.00; 0.000;
		INCLINATION_ANGLE=0.00
		PRESSURE=1013.25
		TEMPERATURE=20.00
		NORM_TEMPERATURE=20.00
		CORRECTION_FACTOR=1.0000
		EXPECTED_MAX_DOSE_RATE=6.00
		CORRECTIONS=SMOOTHED_CORR;SYMMETRY_CORR;
		BEGIN_DATA
			-103.02		3.0759E-03
			-101.00		3.1021E-03
			-98.98		3.1628E-03
			-96.96		3.2249E-03
			-94.94		3.3157E-03
			-92.92		3.4104E-03
			-90.90		3.4443E-03
			-88.88		3.4744E-03
			-86.86		3.5349E-03
			-84.84		3.5651E-03
			-82.82		3.5974E-03
			-80.80		3.6616E-03
			-78.78		3.6950E-03
			-76.76		3.8828E-03
			-74.74		4.5596E-03
			-72.72		5.6331E-03
			-70.70		6.7048E-03
			-68.68		7.6235E-03
			-66.66		8.5174E-03
			-64.64		9.5661E-03
			-62.62		10.947E-03
			-60.60		12.818E-03
			-58.58		15.242E-03
			-56.56		18.185E-03
			-54.54		21.802E-03
			-52.52		26.461E-03
			-50.50		32.561E-03
			-48.48		40.784E-03
			-46.46		52.239E-03
			-44.44		68.904E-03
			-42.42		92.512E-03
			-41.41		108.62E-03
			-40.40		129.82E-03
			-39.39		156.98E-03
			-38.38		191.86E-03
			-37.37		236.22E-03
			-36.36		291.58E-03
			-35.35		359.17E-03
			-34.34		439.46E-03
			-33.33		532.06E-03
			-32.32		635.35E-03
			-31.31		745.77E-03
			-30.30		858.94E-03
			-29.29		970.28E-03
			-28.28		1.0744E+00
			-27.27		1.1666E+00
			-26.26		1.2451E+00
			-25.25		1.3104E+00
			-24.24		1.3630E+00
			-23.23		1.4045E+00
			-22.22		1.4354E+00
			-20.20		1.4791E+00
			-18.18		1.5103E+00
			-16.16		1.5316E+00
			-14.14		1.5463E+00
			-12.12		1.5575E+00
			-10.10		1.5666E+00
			-8.08		1.5731E+00
			-6.06		1.5781E+00
			-4.04		1.5824E+00
			-2.02		1.5846E+00
			0.00		1.5851E+00
			2.02		1.5846E+00
			4.04		1.5824E+00
			6.06		1.5781E+00
			8.08		1.5731E+00
			10.10		1.5666E+00
			12.12		1.5575E+00
			14.14		1.5463E+00
			16.16		1.5316E+00
			18.18		1.5103E+00
			20.20		1.4791E+00
			22.22		1.4354E+00
			23.23		1.4045E+00
			24.24		1.3630E+00
			25.25		1.3104E+00
			26.26		1.2451E+00
			27.27		1.1666E+00
			28.28		1.0744E+00
			29.29		970.28E-03
			30.30		858.94E-03
			31.31		745.77E-03
			32.32		635.35E-03
			33.33		532.06E-03
			34.34		439.46E-03
			35.35		359.17E-03
			36.36		291.58E-03
			37.37		236.22E-03
			38.38		191.86E-03
			39.39		156.98E-03
			40.40		129.82E-03
			41.41		108.62E-03
			42.42		92.512E-03
			44.44		68.904E-03
			46.46		52.239E-03
			48.48		40.784E-03
			50.50		32.561E-03
			52.52		26.461E-03
			54.54		21.802E-03
			56.56		18.185E-03
			58.58		15.242E-03
			60.60		12.818E-03
			62.62		10.947E-03
			64.64		9.5661E-03
			66.66		8.5174E-03
			68.68		7.6235E-03
			70.70		6.7048E-03
			72.72		5.6331E-03
			74.74		4.5596E-03
			76.76		3.8828E-03
			78.78		3.6950E-03
			80.80		3.6616E-03
			82.82		3.5974E-03
			84.84		3.5651E-03
			86.86		3.5349E-03
			88.88		3.4744E-03
			90.90		3.4443E-03
			92.92		3.4104E-03
			94.94		3.3157E-03
			96.96		3.2249E-03
			98.98		3.1628E-03
			101.00		3.1021E-03
			103.02		3.0759E-03
		END_DATA
	END_SCAN  1
	BEGIN_SCAN  2
		TASK_NAME=tba PDD Profiles
		PROGRAM=tbaScan
		MEAS_DATE=21-Jul-2015 16:04:45
		LINAC=M2619
		MODALITY=EL
		ISOCENTER=1000.00
		INPLANE_AXIS=Solid
		CROSSPLANE_AXIS=MLC
		DEPTH_AXIS=Depth
		INPLANE_AXIS_DIR=TARGET_GUN
		CROSSPLANE_AXIS_DIR=LEFT_RIGHT
		DEPTH_AXIS_DIR=UP_DOWN
		ENERGY=6.00
		NOMINAL_DMAX=13.00
		SSD=1000.00
		SCD=450.00
		WEDGE=App6x6
		FIELD_INPLANE=64.00
		FIELD_CROSSPLANE=64.00
		FIELD_TYPE=RECTANGULAR
		GANTRY=0.00
		GANTRY_UPRIGHT_POSITION=0
		GANTRY_ROTATION=CW
		COLL_ANGLE=0.00
		COLL_OFFSET_INPLANE=0.00
		COLL_OFFSET_CROSSPLANE=0.00
		SCAN_DEVICE=MP3
		SCAN_DEVICE_SETUP=BARA_TARGET_GUN
		ELECTROMETER=TANDEM
		RANGE_FIELD=AUTO
		RANGE_REFERENCE=AUTO
		DETECTOR=PLANE_PARALLEL_CHAMBER
		DETECTOR_RADIUS=0.00
		DETECTOR_NAME=PTW 34045 Adv. Markus
		DETECTOR_SN=0000
		DETECTOR_CALIBRATION=1500000000.00
		DETECTOR_IS_CALIBRATED=0
		DETECTOR_REFERENCE=THIMBLE_CHAMBER
		DETECTOR_REFERENCE_SUBCODE=SEMIFLEX
		DETECTOR_REFERENCE_RADIUS=2.75
		DETECTOR_REFERENCE_NAME=PTW 31002 Semiflex
		DETECTOR_REFERENCE_SN=0000
		DETECTOR_REFERENCE_IS_CALIBRATED=0
		DETECTOR_REFERENCE_CALIBRATION=250000000.00
		REF_FIELD_DEPTH=0.00
		REF_FIELD_DEFINED=WATER_SURFACE
		REF_FIELD_INPLANE=100.00
		REF_FIELD_CROSSPLANE=100.00
		REF_SCAN_POSITIONS=-120.00;-118.00;-116.00;-114.00;-112.00;-110.00;-108.00;-106.00;-104.00;-102.00;-100.00;-98.00;-96.00;-94.00;-92.00;-90.00;-88.00;-86.00;-84.00;-82.00;-80.00;-78.00;-76.00;-74.00;-72.00;-70.00;-68.00;-66.00;-64.00;-62.00;-60.00;-59.00;-58.00;-57.00;-56.00;-55.00;-54.00;-53.00;-52.00;-51.00;-50.00;-49.00;-48.00;-47.00;-46.00;-45.00;-44.00;-43.00;-42.00;-41.00;-40.00;-38.00;-36.00;-34.00;-32.00;-30.00;-28.00;-26.00;-24.00;-22.00;-20.00;-18.00;-16.00;-14.00;-12.00;-10.00;-8.00;-6.00;-4.00;-2.00;0.00;2.00;4.00;6.00;8.00;10.00;12.00;14.00;16.00;18.00;20.00;22.00;24.00;26.00;28.00;30.00;32.00;34.00;36.00;38.00;40.00;41.00;42.00;43.00;44.00;45.00;46.00;47.00;48.00;49.00;50.00;51.00;52.00;53.00;54.00;55.00;56.00;57.00;58.00;59.00;60.00;62.00;64.00;66.00;68.00;70.00;72.00;74.00;76.00;78.00;80.00;82.00;84.00;86.00;88.00;90.00;92.00;94.00;96.00;98.00;100.00;102.00;104.00;106.00;108.00;110.00;112.00;114.00;116.00;118.00;120.00;
		REF_OVERSCAN_FACTOR=1.00
		SCAN_CURVETYPE=INPLANE_PROFILE
		SCAN_DEPTH=50.00
		SCAN_OFFAXIS_INPLANE=0.00
		SCAN_OFFAXIS_CROSSPLANE=0.00
		SCAN_ANGLE=0.00
		SCAN_DIAGONAL=NOT_DIAGONAL
		SCAN_DIRECTION=POSITIVE
		MEAS_MEDIUM=WATER
		MEAS_PRESET=REFERENCE_DOSEMETER
		MEAS_TIME=0.800
		MEAS_UNIT=A.U.
		SCAN_SPEEDS=20.00; 5.00;40.00; 15.00;100.00; 25.00;400.00; 50.00;
		DELAY_TIMES=20.00; 0.000;150.00; 0.000;400.00; 0.000;
		INCLINATION_ANGLE=0.00
		PRESSURE=1013.25
		TEMPERATURE=20.00
		NORM_TEMPERATURE=20.00
		CORRECTION_FACTOR=1.0000
		EXPECTED_MAX_DOSE_RATE=6.00
		CORRECTIONS=SMOOTHED_CORR;SYMMETRY_CORR;
		BEGIN_DATA
			-107.10		0.0000E+00
			-105.00		0.0000E+00
			-102.90		0.0000E+00
			-100.80		61.515E-06
			-98.70		153.72E-06
			-96.60		153.50E-06
			-94.50		153.44E-06
			-92.40		215.18E-06
			-90.30		245.98E-06
			-88.20		307.19E-06
			-86.10		430.01E-06
			-84.00		553.04E-06
			-81.90		768.05E-06
			-79.80		1.1671E-03
			-77.70		1.6582E-03
			-75.60		2.0578E-03
			-73.50		2.2738E-03
			-71.40		2.3649E-03
			-69.30		2.4246E-03
			-67.20		2.4568E-03
			-65.10		2.5493E-03
			-63.00		2.7925E-03
			-60.90		3.0080E-03
			-58.80		3.1015E-03
			-56.70		3.1310E-03
			-54.60		3.0722E-03
			-52.50		2.9519E-03
			-50.40		2.8284E-03
			-48.30		2.7691E-03
			-46.20		2.8923E-03
			-44.10		3.1762E-03
			-43.05		3.3207E-03
			-42.00		3.4444E-03
			-40.95		3.6257E-03
			-39.90		3.8680E-03
			-38.85		4.1137E-03
			-37.80		4.4240E-03
			-36.75		4.7933E-03
			-35.70		5.1886E-03
			-34.65		5.6484E-03
			-33.60		6.1723E-03
			-32.55		6.7844E-03
			-31.50		7.4588E-03
			-30.45		8.0171E-03
			-29.40		8.3885E-03
			-28.35		8.6929E-03
			-27.30		8.9118E-03
			-26.25		9.0388E-03
			-25.20		9.1566E-03
			-24.15		9.2698E-03
			-23.10		9.4061E-03
			-21.00		9.6308E-03
			-18.90		9.7258E-03
			-16.80		9.7862E-03
			-14.70		9.8762E-03
			-12.60		9.9963E-03
			-10.50		10.119E-03
			-8.40		10.209E-03
			-6.30		10.206E-03
			-4.20		10.211E-03
			-2.10		10.281E-03
			0.00		10.314E-03
			2.10		10.281E-03
			4.20		10.211E-03
			6.30		10.206E-03
			8.40		10.209E-03
			10.50		10.119E-03
			12.60		9.9963E-03
			14.70		9.8762E-03
			16.80		9.7862E-03
			18.90		9.7258E-03
			21.00		9.6308E-03
			23.10		9.4061E-03
			24.15		9.2698E-03
			25.20		9.1566E-03
			26.25		9.0388E-03
			27.30		8.9118E-03
			28.35		8.6929E-03
			29.40		8.3885E-03
			30.45		8.0171E-03
			31.50		7.4588E-03
			32.55		6.7844E-03
			33.60		6.1723E-03
			34.65		5.6484E-03
			35.70		5.1886E-03
			36.75		4.7933E-03
			37.80		4.4240E-03
			38.85		4.1137E-03
			39.90		3.8680E-03
			40.95		3.6257E-03
			42.00		3.4444E-03
			43.05		3.3207E-03
			44.10		3.1762E-03
			46.20		2.8923E-03
			48.30		2.7691E-03
			50.40		2.8284E-03
			52.50		2.9519E-03
			54.60		3.0722E-03
			56.70		3.1310E-03
			58.80		3.1015E-03
			60.90		3.0080E-03
			63.00		2.7925E-03
			65.10		2.5493E-03
			67.20		2.4568E-03
			69.30		2.4246E-03
			71.40		2.3649E-03
			73.50		2.2738E-03
			75.60		2.0578E-03
			77.70		1.6582E-03
			79.80		1.1671E-03
			81.90		768.05E-06
			84.00		553.04E-06
			86.10		430.01E-06
			88.20		307.19E-06
			90.30		245.98E-06
			92.40		215.18E-06
			94.50		153.44E-06
			96.60		153.50E-06
			98.70		153.72E-06
			100.80		61.515E-06
			102.90		0.0000E+00
			105.00		0.0000E+00
			107.10		0.0000E+00
		END_DATA
	END_SCAN  2
	BEGIN_SCAN  3
		TASK_NAME=tba PDD Profiles
		PROGRAM=tbaScan
		MEAS_DATE=21-Jul-2015 16:04:45
		LINAC=M2619
		MODALITY=EL
		ISOCENTER=1000.00
		INPLANE_AXIS=Solid
		CROSSPLANE_AXIS=MLC
		DEPTH_AXIS=Depth
		INPLANE_AXIS_DIR=TARGET_GUN
		CROSSPLANE_AXIS_DIR=LEFT_RIGHT
		DEPTH_AXIS_DIR=UP_DOWN
		ENERGY=6.00
		NOMINAL_DMAX=13.00
		SSD=1000.00
		SCD=450.00
		WEDGE=App6x6
		FIELD_INPLANE=64.00
		FIELD_CROSSPLANE=64.00
		FIELD_TYPE=RECTANGULAR
		GANTRY=0.00
		GANTRY_UPRIGHT_POSITION=0
		GANTRY_ROTATION=CW
		COLL_ANGLE=0.00
		COLL_OFFSET_INPLANE=0.00
		COLL_OFFSET_CROSSPLANE=0.00
		SCAN_DEVICE=MP3
		SCAN_DEVICE_SETUP=BARA_TARGET_GUN
		ELECTROMETER=TANDEM
		RANGE_FIELD=AUTO
		RANGE_REFERENCE=AUTO
		DETECTOR=PLANE_PARALLEL_CHAMBER
		DETECTOR_RADIUS=0.00
		DETECTOR_NAME=PTW 34045 Adv. Markus
		DETECTOR_SN=0000
		DETECTOR_CALIBRATION=1500000000.00
		DETECTOR_IS_CALIBRATED=0
		DETECTOR_REFERENCE=THIMBLE_CHAMBER
		DETECTOR_REFERENCE_SUBCODE=SEMIFLEX
		DETECTOR_REFERENCE_RADIUS=2.75
		DETECTOR_REFERENCE_NAME=PTW 31002 Semiflex
		DETECTOR_REFERENCE_SN=0000
		DETECTOR_REFERENCE_IS_CALIBRATED=0
		DETECTOR_REFERENCE_CALIBRATION=250000000.00
		REF_FIELD_DEPTH=0.00
		REF_FIELD_DEFINED=WATER_SURFACE
		REF_FIELD_INPLANE=100.00
		REF_FIELD_CROSSPLANE=100.00
		REF_SCAN_POSITIONS=-5.00;-4.00;-3.00;-2.00;-1.00;0.00;1.00;2.00;3.00;4.00;5.00;6.00;7.00;8.00;9.00;10.00;11.00;12.00;13.00;14.00;15.00;16.00;17.00;18.00;19.00;20.00;21.00;22.00;23.00;24.00;25.00;26.00;27.00;28.00;29.00;30.00;31.00;32.00;33.00;34.00;35.00;36.00;37.00;38.00;39.00;40.00;41.00;42.00;43.00;44.00;45.00;46.00;47.00;48.00;49.00;50.00;51.00;52.00;53.00;54.00;55.00;56.00;57.00;58.00;59.00;60.00;61.00;62.00;63.00;64.00;65.00;66.00;67.00;68.00;69.00;70.00;71.00;72.00;73.00;74.00;75.00;76.00;77.00;78.00;79.00;80.00;81.00;82.00;83.00;84.00;85.00;86.00;87.00;88.00;89.00;90.00;
		SCAN_CURVETYPE=PDD
		SCAN_OFFAXIS_INPLANE=0.00
		SCAN_OFFAXIS_CROSSPLANE=0.00
		SCAN_ANGLE=0.00
		SCAN_DIAGONAL=NOT_DIAGONAL
		SCAN_DIRECTION=NEGATIVE
		MEAS_MEDIUM=WATER
		MEAS_PRESET=REFERENCE_DOSEMETER
		MEAS_TIME=0.800
		MEAS_UNIT=A.U.
		SCAN_SPEEDS=20.00; 5.00;40.00; 15.00;100.00; 25.00;400.00; 50.00;
		DELAY_TIMES=20.00; 0.000;150.00; 0.000;400.00; 0.000;
		INCLINATION_ANGLE=0.00
		PRESSURE=1013.25
		TEMPERATURE=20.00
		NORM_TEMPERATURE=20.00
		CORRECTION_FACTOR=1.0000
		EXPECTED_MAX_DOSE_RATE=6.00
		CORRECTIONS=IAEA_398;MODIFIED_CORR;SMOOTHED_CORR;
		BEGIN_DATA
			0.00		1.2025E+00
			1.00		1.2070E+00
			2.00		1.2175E+00
			3.00		1.2371E+00
			4.00		1.2632E+00
			5.00		1.2909E+00
			6.00		1.3184E+00
			7.00		1.3459E+00
			8.00		1.3734E+00
			9.00		1.4000E+00
			10.00		1.4244E+00
			11.00		1.4459E+00
			12.00		1.4630E+00
			13.00		1.4736E+00
			14.00		1.4758E+00
			15.00		1.4681E+00
			16.00		1.4487E+00
			17.00		1.4161E+00
			18.00		1.3702E+00
			19.00		1.3118E+00
			20.00		1.2407E+00
			21.00		1.1571E+00
			22.00		1.0632E+00
			23.00		960.95E-03
			24.00		852.19E-03
			25.00		738.90E-03
			26.00		624.68E-03
			27.00		514.81E-03
			28.00		413.46E-03
			29.00		322.19E-03
			30.00		242.23E-03
			31.00		175.49E-03
			32.00		122.83E-03
			33.00		83.211E-03
			34.00		54.980E-03
			35.00		36.191E-03
			36.00		24.528E-03
			37.00		17.772E-03
			38.00		14.162E-03
			39.00		12.496E-03
			40.00		11.940E-03
			41.00		11.755E-03
			42.00		11.385E-03
			43.00		10.922E-03
			44.00		10.829E-03
			45.00		11.014E-03
			46.00		11.107E-03
			47.00		11.014E-03
			48.00		10.737E-03
			49.00		10.459E-03
			50.00		10.367E-03
			51.00		10.367E-03
			52.00		10.367E-03
			53.00		10.367E-03
			54.00		10.367E-03
			55.00		10.367E-03
			56.00		10.367E-03
			57.00		10.367E-03
			58.00		10.367E-03
			59.00		10.367E-03
			60.00		10.367E-03
			61.00		10.367E-03
			62.00		10.367E-03
			63.00		10.367E-03
			64.00		10.367E-03
			65.00		10.367E-03
			66.00		10.367E-03
			67.00		10.367E-03
			68.00		10.367E-03
			69.00		10.367E-03
			70.00		10.367E-03
			71.00		10.367E-03
			72.00		10.367E-03
			73.00		10.367E-03
			74.00		10.367E-03
			75.00		10.367E-03
			76.00		10.367E-03
			77.00		10.367E-03
			78.00		10.367E-03
			79.00		10.367E-03
			80.00		10.367E-03
			81.00		10.367E-03
			82.00		10.367E-03
			83.00		10.367E-03
			84.00		10.367E-03
			85.00		10.367E-03
			86.00		10.367E-03
			87.00		10.367E-03
			88.00		10.367E-03
			89.00		10.367E-03
			90.00		10.367E-03
		END_DATA
	END_SCAN  3
	BEGIN_SCAN  4
		TASK_NAME=tba PDD Profiles
		PROGRAM=tbaScan
		MEAS_DATE=21-Jul-2015 16:04:45
		LINAC=M2619
		MODALITY=EL
		ISOCENTER=1000.00
		INPLANE_AXIS=Solid
		CROSSPLANE_AXIS=MLC
		DEPTH_AXIS=Depth
		INPLANE_AXIS_DIR=TARGET_GUN
		CROSSPLANE_AXIS_DIR=LEFT_RIGHT
		DEPTH_AXIS_DIR=UP_DOWN
		ENERGY=6.00
		NOMINAL_DMAX=13.00
		SSD=1000.00
		SCD=450.00
		WEDGE=App6x6
		FIELD_INPLANE=64.00
		FIELD_CROSSPLANE=64.00
		FIELD_TYPE=RECTANGULAR
		GANTRY=0.00
		GANTRY_UPRIGHT_POSITION=0
		GANTRY_ROTATION=CW
		COLL_ANGLE=0.00
		COLL_OFFSET_INPLANE=0.00
		COLL_OFFSET_CROSSPLANE=0.00
		SCAN_DEVICE=MP3
		SCAN_DEVICE_SETUP=BARA_TARGET_GUN
		ELECTROMETER=TANDEM
		RANGE_FIELD=AUTO
		RANGE_REFERENCE=AUTO
		DETECTOR=PLANE_PARALLEL_CHAMBER
		DETECTOR_RADIUS=0.00
		DETECTOR_NAME=PTW 34045 Adv. Markus
		DETECTOR_SN=0000
		DETECTOR_CALIBRATION=1500000000.00
		DETECTOR_IS_CALIBRATED=0
		DETECTOR_REFERENCE=THIMBLE_CHAMBER
		DETECTOR_REFERENCE_SUBCODE=SEMIFLEX
		DETECTOR_REFERENCE_RADIUS=2.75
		DETECTOR_REFERENCE_NAME=PTW 31002 Semiflex
		DETECTOR_REFERENCE_SN=0000
		DETECTOR_REFERENCE_IS_CALIBRATED=0
		DETECTOR_REFERENCE_CALIBRATION=250000000.00
		REF_FIELD_DEPTH=0.00
		REF_FIELD_DEFINED=WATER_SURFACE
		REF_FIELD_INPLANE=100.00
		REF_FIELD_CROSSPLANE=100.00
		REF_SCAN_POSITIONS=-120.00;-118.00;-116.00;-114.00;-112.00;-110.00;-108.00;-106.00;-104.00;-102.00;-100.00;-98.00;-96.00;-94.00;-92.00;-90.00;-88.00;-86.00;-84.00;-82.00;-80.00;-78.00;-76.00;-74.00;-72.00;-70.00;-68.00;-66.00;-64.00;-62.00;-60.00;-59.00;-58.00;-57.00;-56.00;-55.00;-54.00;-53.00;-52.00;-51.00;-50.00;-49.00;-48.00;-47.00;-46.00;-45.00;-44.00;-43.00;-42.00;-41.00;-40.00;-38.00;-36.00;-34.00;-32.00;-30.00;-28.00;-26.00;-24.00;-22.00;-20.00;-18.00;-16.00;-14.00;-12.00;-10.00;-8.00;-6.00;-4.00;-2.00;0.00;2.00;4.00;6.00;8.00;10.00;12.00;14.00;16.00;18.00;20.00;22.00;24.00;26.00;28.00;30.00;32.00;34.00;36.00;38.00;40.00;41.00;42.00;43.00;44.00;45.00;46.00;47.00;48.00;49.00;50.00;51.00;52.00;53.00;54.00;55.00;56.00;57.00;58.00;59.00;60.00;62.00;64.00;66.00;68.00;70.00;72.00;74.00;76.00;78.00;80.00;82.00;84.00;86.00;88.00;90.00;92.00;94.00;96.00;98.00;100.00;102.00;104.00;106.00;108.00;110.00;112.00;114.00;116.00;118.00;120.00;
		REF_OVERSCAN_FACTOR=1.00
		SCAN_CURVETYPE=CROSSPLANE_PROFILE
		SCAN_DEPTH=10.00
		SCAN_OFFAXIS_INPLANE=0.00
		SCAN_OFFAXIS_CROSSPLANE=0.00
		SCAN_ANGLE=0.00
		SCAN_DIAGONAL=NOT_DIAGONAL
		SCAN_DIRECTION=POSITIVE
		MEAS_MEDIUM=WATER
		MEAS_PRESET=REFERENCE_DOSEMETER
		MEAS_TIME=0.800
		MEAS_UNIT=A.U.
		SCAN_SPEEDS=20.00; 5.00;40.00; 15.00;100.00; 25.00;400.00; 50.00;
		DELAY_TIMES=20.00; 0.000;150.00; 0.000;400.00; 0.000;
		INCLINATION_ANGLE=0.00
		PRESSURE=1013.25
		TEMPERATURE=20.00
		NORM_TEMPERATURE=20.00
		CORRECTION_FACTOR=1.0000
		EXPECTED_MAX_DOSE_RATE=6.00
		CORRECTIONS=SMOOTHED_CORR;SYMMETRY_CORR;
		BEGIN_DATA
			-103.02		7.2390E-03
			-101.00		7.4660E-03
			-98.98		7.6241E-03
			-96.96		7.7793E-03
			-94.94		7.9301E-03
			-92.92		8.0538E-03
			-90.90		8.2399E-03
			-88.88		8.5074E-03
			-86.86		8.8404E-03
			-84.84		9.2501E-03
			-82.82		9.6531E-03
			-80.80		9.9876E-03
			-78.78		10.331E-03
			-76.76		10.731E-03
			-74.74		11.156E-03
			-72.72		11.616E-03
			-70.70		12.134E-03
			-68.68		12.804E-03
			-66.66		13.756E-03
			-64.64		14.925E-03
			-62.62		16.338E-03
			-60.60		18.195E-03
			-58.58		20.567E-03
			-56.56		23.512E-03
			-54.54		27.265E-03
			-52.52		32.134E-03
			-50.50		38.445E-03
			-48.48		46.888E-03
			-46.46		58.740E-03
			-44.44		76.065E-03
			-42.42		100.32E-03
			-41.41		117.04E-03
			-40.40		139.34E-03
			-39.39		167.95E-03
			-38.38		204.56E-03
			-37.37		251.02E-03
			-36.36		309.27E-03
			-35.35		380.45E-03
			-34.34		464.04E-03
			-33.33		559.10E-03
			-32.32		664.03E-03
			-31.31		775.64E-03
			-30.30		889.01E-03
			-29.29		998.11E-03
			-28.28		1.0984E+00
			-27.27		1.1873E+00
			-26.26		1.2626E+00
			-25.25		1.3240E+00
			-24.24		1.3734E+00
			-23.23		1.4123E+00
			-22.22		1.4413E+00
			-20.20		1.4831E+00
			-18.18		1.5119E+00
			-16.16		1.5317E+00
			-14.14		1.5467E+00
			-12.12		1.5584E+00
			-10.10		1.5678E+00
			-8.08		1.5747E+00
			-6.06		1.5793E+00
			-4.04		1.5828E+00
			-2.02		1.5852E+00
			0.00		1.5861E+00
			2.02		1.5852E+00
			4.04		1.5828E+00
			6.06		1.5793E+00
			8.08		1.5747E+00
			10.10		1.5678E+00
			12.12		1.5584E+00
			14.14		1.5467E+00
			16.16		1.5317E+00
			18.18		1.5119E+00
			20.20		1.4831E+00
			22.22		1.4413E+00
			23.23		1.4123E+00
			24.24		1.3734E+00
			25.25		1.3240E+00
			26.26		1.2626E+00
			27.27		1.1873E+00
			28.28		1.0984E+00
			29.29		998.11E-03
			30.30		889.01E-03
			31.31		775.64E-03
			32.32		664.03E-03
			33.33		559.10E-03
			34.34		464.04E-03
			35.35		380.45E-03
			36.36		309.27E-03
			37.37		251.02E-03
			38.38		204.56E-03
			39.39		167.95E-03
			40.40		139.34E-03
			41.41		117.04E-03
			42.42		100.32E-03
			44.44		76.065E-03
			46.46		58.740E-03
			48.48		46.888E-03
			50.50		38.445E-03
			52.52		32.134E-03
			54.54		27.265E-03
			56.56		23.512E-03
			58.58		20.567E-03
			60.60		18.195E-03
			62.62		16.338E-03
			64.64		14.925E-03
			66.66		13.756E-03
			68.68		12.804E-03
			70.70		12.134E-03
			72.72		11.616E-03
			74.74		11.156E-03
			76.76		10.731E-03
			78.78		10.331E-03
			80.80		9.9876E-03
			82.82		9.6531E-03
			84.84		9.2501E-03
			86.86		8.8404E-03
			88.88		8.5074E-03
			90.90		8.2399E-03
			92.92		8.0538E-03
			94.94		7.9301E-03
			96.96		7.7793E-03
			98.98		7.6241E-03
			101.00		7.4660E-03
			103.02		7.2390E-03
		END_DATA
	END_SCAN  4
	BEGIN_SCAN  5
		TASK_NAME=tba PDD Profiles
		PROGRAM=tbaScan
		MEAS_DATE=21-Jul-2015 16:04:45
		LINAC=M2619
		MODALITY=EL
		ISOCENTER=1000.00
		INPLANE_AXIS=Solid
		CROSSPLANE_AXIS=MLC
		DEPTH_AXIS=Depth
		INPLANE_AXIS_DIR=TARGET_GUN
		CROSSPLANE_AXIS_DIR=LEFT_RIGHT
		DEPTH_AXIS_DIR=UP_DOWN
		ENERGY=6.00
		NOMINAL_DMAX=13.00
		SSD=1000.00
		SCD=450.00
		WEDGE=App6x6
		FIELD_INPLANE=64.00
		FIELD_CROSSPLANE=64.00
		FIELD_TYPE=RECTANGULAR
		GANTRY=0.00
		GANTRY_UPRIGHT_POSITION=0
		GANTRY_ROTATION=CW
		COLL_ANGLE=0.00
		COLL_OFFSET_INPLANE=0.00
		COLL_OFFSET_CROSSPLANE=0.00
		SCAN_DEVICE=MP3
		SCAN_DEVICE_SETUP=BARA_TARGET_GUN
		ELECTROMETER=TANDEM
		RANGE_FIELD=AUTO
		RANGE_REFERENCE=AUTO
		DETECTOR=PLANE_PARALLEL_CHAMBER
		DETECTOR_RADIUS=0.00
		DETECTOR_NAME=PTW 34045 Adv. Markus
		DETECTOR_SN=0000
		DETECTOR_CALIBRATION=1500000000.00
		DETECTOR_IS_CALIBRATED=0
		DETECTOR_REFERENCE=THIMBLE_CHAMBER
		DETECTOR_REFERENCE_SUBCODE=SEMIFLEX
		DETECTOR_REFERENCE_RADIUS=2.75
		DETECTOR_REFERENCE_NAME=PTW 31002 Semiflex
		DETECTOR_REFERENCE_SN=0000
		DETECTOR_REFERENCE_IS_CALIBRATED=0
		DETECTOR_REFERENCE_CALIBRATION=250000000.00
		REF_FIELD_DEPTH=0.00
		REF_FIELD_DEFINED=WATER_SURFACE
		REF_FIELD_INPLANE=100.00
		REF_FIELD_CROSSPLANE=100.00
		REF_SCAN_POSITIONS=-120.00;-118.00;-116.00;-114.00;-112.00;-110.00;-108.00;-106.00;-104.00;-102.00;-100.00;-98.00;-96.00;-94.00;-92.00;-90.00;-88.00;-86.00;-84.00;-82.00;-80.00;-78.00;-76.00;-74.00;-72.00;-70.00;-68.00;-66.00;-64.00;-62.00;-60.00;-59.00;-58.00;-57.00;-56.00;-55.00;-54.00;-53.00;-52.00;-51.00;-50.00;-49.00;-48.00;-47.00;-46.00;-45.00;-44.00;-43.00;-42.00;-41.00;-40.00;-38.00;-36.00;-34.00;-32.00;-30.00;-28.00;-26.00;-24.00;-22.00;-20.00;-18.00;-16.00;-14.00;-12.00;-10.00;-8.00;-6.00;-4.00;-2.00;0.00;2.00;4.00;6.00;8.00;10.00;12.00;14.00;16.00;18.00;20.00;22.00;24.00;26.00;28.00;30.00;32.00;34.00;36.00;38.00;40.00;41.00;42.00;43.00;44.00;45.00;46.00;47.00;48.00;49.00;50.00;51.00;52.00;53.00;54.00;55.00;56.00;57.00;58.00;59.00;60.00;62.00;64.00;66.00;68.00;70.00;72.00;74.00;76.00;78.00;80.00;82.00;84.00;86.00;88.00;90.00;92.00;94.00;96.00;98.00;100.00;102.00;104.00;106.00;108.00;110.00;112.00;114.00;116.00;118.00;120.00;
		REF_OVERSCAN_FACTOR=1.00
		SCAN_CURVETYPE=CROSSPLANE_PROFILE
		SCAN_DEPTH=50.00
		SCAN_OFFAXIS_INPLANE=0.00
		SCAN_OFFAXIS_CROSSPLANE=0.00
		SCAN_ANGLE=0.00
		SCAN_DIAGONAL=NOT_DIAGONAL
		SCAN_DIRECTION=POSITIVE
		MEAS_MEDIUM=WATER
		MEAS_PRESET=REFERENCE_DOSEMETER
		MEAS_TIME=0.800
		MEAS_UNIT=A.U.
		SCAN_SPEEDS=20.00; 5.00;40.00; 15.00;100.00; 25.00;400.00; 50.00;
		DELAY_TIMES=20.00; 0.000;150.00; 0.000;400.00; 0.000;
		INCLINATION_ANGLE=0.00
		PRESSURE=1013.25
		TEMPERATURE=20.00
		NORM_TEMPERATURE=20.00
		CORRECTION_FACTOR=1.0000
		EXPECTED_MAX_DOSE_RATE=6.00
		CORRECTIONS=SMOOTHED_CORR;SYMMETRY_CORR;
		BEGIN_DATA
			-107.10		245.90E-06
			-105.00		245.93E-06
			-102.90		245.94E-06
			-100.80		276.71E-06
			-98.70		338.29E-06
			-96.60		430.44E-06
			-94.50		584.04E-06
			-92.40		738.11E-06
			-90.30		892.38E-06
			-88.20		1.1687E-03
			-86.10		1.5064E-03
			-84.00		1.7842E-03
			-81.90		2.0006E-03
			-79.80		2.1238E-03
			-77.70		2.2463E-03
			-75.60		2.4288E-03
			-73.50		2.5811E-03
			-71.40		2.6743E-03
			-69.30		2.7974E-03
			-67.20		3.0715E-03
			-65.10		3.4091E-03
			-63.00		3.6573E-03
			-60.90		3.8122E-03
			-58.80		3.9369E-03
			-56.70		3.9998E-03
			-54.60		3.9364E-03
			-52.50		3.7805E-03
			-50.40		3.5952E-03
			-48.30		3.4720E-03
			-46.20		3.5349E-03
			-44.10		3.7924E-03
			-43.05		3.9372E-03
			-42.00		4.0615E-03
			-40.95		4.2152E-03
			-39.90		4.3981E-03
			-38.85		4.5794E-03
			-37.80		4.7934E-03
			-36.75		5.0723E-03
			-35.70		5.3532E-03
			-34.65		5.6917E-03
			-33.60		6.2396E-03
			-32.55		6.9144E-03
			-31.50		7.5607E-03
			-30.45		8.0823E-03
			-29.40		8.4262E-03
			-28.35		8.6489E-03
			-27.30		8.8638E-03
			-26.25		9.0415E-03
			-25.20		9.1608E-03
			-24.15		9.2871E-03
			-23.10		9.3904E-03
			-21.00		9.5614E-03
			-18.90		9.7141E-03
			-16.80		9.8043E-03
			-14.70		9.8648E-03
			-12.60		9.9555E-03
			-10.50		10.048E-03
			-8.40		10.095E-03
			-6.30		10.139E-03
			-4.20		10.157E-03
			-2.10		10.116E-03
			0.00		10.085E-03
			2.10		10.116E-03
			4.20		10.157E-03
			6.30		10.139E-03
			8.40		10.095E-03
			10.50		10.048E-03
			12.60		9.9555E-03
			14.70		9.8648E-03
			16.80		9.8043E-03
			18.90		9.7141E-03
			21.00		9.5614E-03
			23.10		9.3904E-03
			24.15		9.2871E-03
			25.20		9.1608E-03
			26.25		9.0415E-03
			27.30		8.8638E-03
			28.35		8.6489E-03
			29.40		8.4262E-03
			30.45		8.0823E-03
			31.50		7.5607E-03
			32.55		6.9144E-03
			33.60		6.2396E-03
			34.65		5.6917E-03
			35.70		5.3532E-03
			36.75		5.0723E-03
			37.80		4.7934E-03
			38.85		4.5794E-03
			39.90		4.3981E-03
			40.95		4.2152E-03
			42.00		4.0615E-03
			43.05		3.9372E-03
			44.10		3.7924E-03
			46.20		3.5349E-03
			48.30		3.4720E-03
			50.40		3.5952E-03
			52.50		3.7805E-03
			54.60		3.9364E-03
			56.70		3.9998E-03
			58.80		3.9369E-03
			60.90		3.8122E-03
			63.00		3.6573E-03
			65.10		3.4091E-03
			67.20		3.0715E-03
			69.30		2.7974E-03
			71.40		2.6743E-03
			73.50		2.5811E-03
			75.60		2.4288E-03
			77.70		2.2463E-03
			79.80		2.1238E-03
			81.90		2.0006E-03
			84.00		1.7842E-03
			86.10		1.5064E-03
			88.20		1.1687E-03
			90.30		892.38E-06
			92.40		738.11E-06
			94.50		584.04E-06
			96.60		430.44E-06
			98.70		338.29E-06
			100.80		276.71E-06
			102.90		245.94E-06
			105.00		245.93E-06
			107.10		245.90E-06
		END_DATA
	END_SCAN  5
	BEGIN_SCAN  6
		TASK_NAME=tba PDD Profiles
		PROGRAM=tbaScan
		MEAS_DATE=19-Jul-2012 17:00:02
		LINAC=M2619
		MODALITY=EL
		ISOCENTER=1000.00
		INPLANE_AXIS=Solid
		CROSSPLANE_AXIS=MLC
		DEPTH_AXIS=Depth
		INPLANE_AXIS_DIR=TARGET_GUN
		CROSSPLANE_AXIS_DIR=LEFT_RIGHT
		DEPTH_AXIS_DIR=UP_DOWN
		ENERGY=6.00
		NOMINAL_DMAX=13.00
		SSD=1000.00
		SCD=450.00
		WEDGE=App6x6
		FIELD_INPLANE=64.00
		FIELD_CROSSPLANE=64.00
		FIELD_TYPE=RECTANGULAR
		GANTRY=0.00
		GANTRY_UPRIGHT_POSITION=0
		GANTRY_ROTATION=CW
		COLL_ANGLE=90.00
		COLL_OFFSET_INPLANE=0.00
		COLL_OFFSET_CROSSPLANE=0.00
		SCAN_DEVICE=MP3
		SCAN_DEVICE_SETUP=BARA_TARGET_GUN
		ELECTROMETER=TANDEM
		RANGE_FIELD=AUTO
		RANGE_REFERENCE=AUTO
		DETECTOR=PLANE_PARALLEL_CHAMBER
		DETECTOR_RADIUS=0.00
		DETECTOR_NAME=PTW 34045 Adv. Markus
		DETECTOR_SN=0000
		DETECTOR_CALIBRATION=1500000000.00
		DETECTOR_IS_CALIBRATED=0
		DETECTOR_REFERENCE=THIMBLE_CHAMBER
		DETECTOR_REFERENCE_SUBCODE=SEMIFLEX
		DETECTOR_REFERENCE_RADIUS=2.75
		DETECTOR_REFERENCE_NAME=PTW 31002 Semiflex
		DETECTOR_REFERENCE_SN=0000
		DETECTOR_REFERENCE_IS_CALIBRATED=0
		DETECTOR_REFERENCE_CALIBRATION=250000000.00
		DETECTOR_HV=100.0
		DETECTOR_REFERENCE_HV=300.0
		REF_FIELD_DEPTH=0.00
		REF_FIELD_DEFINED=WATER_SURFACE
		REF_FIELD_INPLANE=100.00
		REF_FIELD_CROSSPLANE=100.00
		REF_SCAN_POSITIONS=-90.00;-85.00;-80.00;-78.00;-76.00;-74.00;-72.00;-70.00;-68.00;-66.00;-64.00;-62.00;-60.00;-59.00;-57.80;-56.60;-55.40;-54.20;-53.00;-51.80;-50.60;-49.40;-48.20;-47.00;-45.80;-44.60;-43.40;-42.20;-41.00;-39.80;-38.60;-37.40;-36.20;-35.00;-32.00;-28.00;-24.00;-20.00;-16.00;-12.00;-8.00;-4.00;0.00;4.00;8.00;12.00;16.00;20.00;24.00;28.00;32.00;35.00;36.20;37.40;38.60;39.80;41.00;42.20;43.40;44.60;45.80;47.00;48.20;49.40;50.60;51.80;53.00;54.20;55.40;56.60;57.80;59.00;60.00;62.00;64.00;66.00;68.00;70.00;72.00;74.00;76.00;78.00;80.00;85.00;90.00;
		REF_OVERSCAN_FACTOR=1.00
		SCAN_CURVETYPE=INPLANE_PROFILE
		SCAN_DEPTH=18.00
		SCAN_OFFAXIS_INPLANE=0.00
		SCAN_OFFAXIS_CROSSPLANE=0.00
		SCAN_ANGLE=0.00
		SCAN_DIAGONAL=NOT_DIAGONAL
		SCAN_DIRECTION=POSITIVE
		MEAS_MEDIUM=AIR
		MEAS_PRESET=REFERENCE_DOSEMETER
		MEAS_TIME=0.850
		MEAS_UNIT=A.U.
		SCAN_SPEEDS=20.00; 5.00;40.00; 15.00;100.00; 25.00;400.00; 50.00;
		DELAY_TIMES=20.00; 0.000;150.00; 0.000;400.00; 0.000;
		INCLINATION_ANGLE=0.00
		PRESSURE=1013.25
		TEMPERATURE=20.00
		NORM_TEMPERATURE=20.00
		CORRECTION_FACTOR=1.0000
		EXPECTED_MAX_DOSE_RATE=5.00
		BEGIN_DATA
			-73.30		3.5778E-03		5.0310E+00
			-68.21		4.6539E-03		5.0280E+00
			-63.12		5.7262E-03		5.0295E+00
			-61.08		6.7979E-03		5.0310E+00
			-59.04		8.0573E-03		5.0265E+00
			-57.01		10.018E-03		5.0310E+00
			-54.97		12.530E-03		5.0280E+00
			-52.94		16.811E-03		5.0325E+00
			-50.90		23.428E-03		5.0325E+00
			-48.86		33.453E-03		5.0310E+00
			-46.83		48.479E-03		5.0310E+00
			-44.79		70.641E-03		5.0325E+00
			-42.76		101.49E-03		5.0280E+00
			-41.74		121.57E-03		5.0340E+00
			-40.52		149.28E-03		5.0340E+00
			-39.29		182.59E-03		5.0325E+00
			-38.07		221.94E-03		5.0325E+00
			-36.85		266.37E-03		5.0310E+00
			-35.63		317.35E-03		5.0310E+00
			-34.41		373.46E-03		5.0295E+00
			-33.19		434.22E-03		5.0325E+00
			-31.97		497.46E-03		5.0295E+00
			-30.74		562.65E-03		5.0355E+00
			-29.52		627.19E-03		5.0310E+00
			-28.30		688.83E-03		5.0355E+00
			-27.08		747.23E-03		5.0310E+00
			-25.86		799.17E-03		5.0340E+00
			-24.64		845.47E-03		5.0340E+00
			-23.41		886.15E-03		5.0355E+00
			-22.19		921.89E-03		5.0355E+00
			-20.97		950.21E-03		5.0370E+00
